# M405L2 Spectrum
# Wavelength (nm) Normalized Intensity
370.242937921223 0.0034843205574910385
371.1771939765863 0.0034843205574910385
372.63048117381817 0.0034843205574910385
373.6685434575552 0.0034843205574910385
374.8104119696659 0.0034843205574910385
375.95228048177665 0.0034843205574910385
377.40556767900847 0.0034843205574910385
378.6512424194929 0.0034843205574910385
379.5854984748562 0.0034843205574910385
381.14259190046175 0.0034843205574910385
382.4920728693199 0.0034843205574910385
383.1149102395621 0.0034843205574910385
383.84191553235354 0.0055749128919859725
384.36130836839754 0.0076655052264806844
384.7776183644189 0.013937282229965042
385.19356666626476 0.018118466898954466
385.81712742485803 0.022299651567944112
386.2330757267039 0.026480836236933536
386.6501091110763 0.03693379790940732
386.96333626707496 0.04738675958188132
387.4830907972945 0.05156794425087097
387.79667964746875 0.06411149825783968
388.2137130318411 0.07456445993031346
388.6314698045646 0.08919860627177689
389.1526711114862 0.10174216027874539
389.4666216558359 0.11637630662020904
389.7802105060101 0.12891986062717753
390.0937993561844 0.14146341463414625
390.4077499005341 0.15609756097560945
390.7217004448838 0.1707317073170731
391.0349276008825 0.18118466898954688
391.24543361103406 0.19790940766550502
391.5597458495593 0.21463414634146327
391.8744197822601 0.23344947735191623
392.1887320207853 0.2501742160278744
392.3995997251124 0.26898954703832745
392.7146353519887 0.2898954703832751
393.02894759051395 0.3066202090592334
393.23981529484104 0.3254355400696862
393.4510446933436 0.3463414634146341
393.76535693186884 0.36306620209059226
394.08075425292066 0.38606271777003476
394.2923453455988 0.40905923344947726
394.60701927829956 0.4278745644599302
394.8182486768021 0.448780487804878
395.0294780753047 0.4696864111498257
395.34342861965445 0.4843205574912892
395.553934629806 0.5010452961672474
395.6602727174083 0.5156794425087107
395.97349987340704 0.5261324041811847
396.08019965518486 0.5428571428571428
396.2907056653364 0.559581881533101
396.6053795980372 0.578397212543554
396.71171768563954 0.5930313588850173
396.92113861326453 0.6034843205574912
397.0271150066913 0.6160278745644598
397.23762101684287 0.6327526132404181
397.4474036386434 0.6452961672473867
397.65790964879494 0.662020905923345
397.868053964771 0.6766550522648084
397.97439205237333 0.6912891986062718
398.28942767924957 0.7121951219512195
398.4995719952256 0.7268292682926829
398.6051866944769 0.7372822299651568
398.8146076221019 0.7477351916376307
399.025475326429 0.7665505226480837
399.13145171985576 0.7790940766550523
399.5488467984037 0.791637630662021
399.65518488600605 0.8062717770034844
400.07257996455394 0.818815331010453
400.3868922030792 0.8355400696864113
400.80464897580265 0.8501742160278746
401.11968460267894 0.8710801393728222
401.5378030695779 0.8878048780487805
402.0604511532016 0.9087108013937283
402.47893131427605 0.9275261324041812
403.0004943153732 0.9421602787456447
403.62622523901956 0.9588850174216028
404.043258623392 0.9693379790940767
404.45956861941335 0.9756097560975611
404.66898954703834 0.986062717770035
405.1891057714334 0.9923344947735192
405.501609539081 0.9986062717770036
405.91683445257587 0.9986062717770036
406.2282531376969 0.9986062717770036
406.74728427956546 0.9986062717770036
407.05761788216 0.9923344947735192
407.3679514847546 0.986062717770035
407.67828508734914 0.9797909407665506
408.0917015299664 0.9693379790940767
408.40131174420986 0.9588850174216028
408.7105602642779 0.9463414634146342
409.123253318544 0.9317073170731708
409.5363080669857 0.9191637630662022
409.6379441303063 0.9066202090592335
409.84193964529857 0.8857142857142857
410.0462968544663 0.8668989547038328
410.459351602908 0.8543554006968641
410.6644322004268 0.8397212543554007
410.86951279794556 0.8250871080139373
411.07423170128885 0.8083623693379791
411.1755060704339 0.7937282229965157
411.3805866679527 0.7790940766550523
411.58566726547144 0.7644599303135888
411.6869416346165 0.7498257839721254
411.89202223213533 0.735191637630662
412.2012707522033 0.7226480836236934
412.3025451213484 0.7080139372822299
412.6117936414164 0.6954703832752613
412.81687423893516 0.6808362369337979
413.02159314227845 0.6641114982578398
413.33011827399537 0.6473867595818815
413.53447548316313 0.6285714285714286
413.9471685374293 0.6139372822299651
414.0484429065744 0.5993031358885017
414.25352350409315 0.5846689895470383
414.56241032998565 0.5700348432055748
414.7674909275044 0.5554006968641114
414.97220983084765 0.5386759581881533
415.3838178025873 0.5177700348432056
415.6930663226553 0.5052264808362369
415.89742353182305 0.48641114982578393
416.3119250569668 0.4822299651567944
416.5170056544856 0.46759581881533097
416.8262541745536 0.45505226480836225
417.13586438879713 0.44459930313588836
417.3413066804914 0.43205574912891986
417.5467489721857 0.41951219512195115
417.8567208806047 0.41114982578397197
418.1656077064972 0.39651567944250865
418.57902414911445 0.38606271777003476
418.7841047466332 0.37142857142857144
419.09335326670123 0.3588850174216027
419.2987955583955 0.3463414634146341
419.71257369518827 0.33797909407665505
419.91801598688255 0.3254355400696862
420.22762620112604 0.31498257839721244
420.4330684928203 0.3024390243902437
420.74231701288835 0.2898954703832751
421.0515655329564 0.2773519163763065
421.36117574719987 0.2668989547038326
421.6704242672679 0.254355400696864
421.9800344815114 0.24390243902439013
422.1858384673812 0.23344947735191623
422.7030611383721 0.22299651567944234
423.0119479642646 0.2083623693379788
423.3211964843326 0.1958188153310103
423.6308066985761 0.18536585365853653
424.04422314119336 0.17491289198606275
424.14549751033843 0.1602787456445991
424.6630818755049 0.15191637630662003
424.97233039557284 0.1393728222996513
425.48919137238823 0.12682926829268282
425.90224612082994 0.1142857142857141
426.41910709764534 0.10174216027874539
426.9366914628118 0.09337979094076632
427.55808205635196 0.08501742160278725
427.9711368047937 0.07247386759581875
428.696695320883 0.0662020905923344
429.3177242202476 0.05574912891986061
430.04255934798596 0.04529616724738661
430.76920294660187 0.04529616724738661
431.07881316084536 0.034843205574912606
431.5978443027139 0.034843205574912606
431.90817790530843 0.028571428571428248
432.4264856588259 0.024390243902438824
433.0496847232437 0.026480836236933536
433.56835417093663 0.024390243902438824
434.19119154117885 0.024390243902438824
434.6060547604982 0.022299651567944112
435.02055628564193 0.018118466898954466
435.4354195049612 0.016027874564459754
435.9537272584787 0.011846689895470108
436.4727584003472 0.011846689895470108
436.9914278480402 0.009756097560975396
437.405929373184 0.0055749128919859725
438.0287667434262 0.0055749128919859725
438.7550486478666 0.0034843205574910385
439.2740797897351 0.0034843205574910385
439.8969171599773 0.0034843205574910385
441.14259190046175 0.0034843205574910385
442.6996853260673 0.0034843205574910385
444.2567787516728 0.0034843205574910385
445.60625972053094 0.0034843205574910385
446.74812823264165 0.0034843205574910385
448.09760920149984 0.0034843205574910385
449.23947771361054 0.0034843205574910385
449.86231508385276 0.0034843205574910385
